Time_(sec),Volume_(cm3),Temperature_(K),Pressure_(bar)
        0.000000000000000,        399.1019000000000,        408.0000000000000,        1.988199000000000
    8.580681000000000E-05,        399.0976000000000,        408.0015000000000,        1.988229000000000
    0.0001757431000000000,        399.0841000000000,        408.0062000000000,        1.988320000000000
    0.0002651180000000000,        399.0615000000000,        408.0139000000000,        1.988472000000000
    0.0003566491000000000,        399.0288000000000,        408.0250000000000,        1.988690000000000
    0.0004459433000000000,        398.9876000000000,        408.0390000000000,        1.988965000000000
    0.0005349053000000000,        398.9374000000000,        408.0560000000000,        1.989299000000000
    0.0006261340000000000,        398.8765000000000,        408.0766000000000,        1.989704000000000
    0.0007156641000000000,        398.8075000000000,        408.1001000000000,        1.990164000000000
    0.0008045545000000000,        398.7298000000000,        408.1264000000000,        1.990681000000000
    0.0008946655000000000,        398.6418000000000,        408.1562000000000,        1.991267000000000
    0.0009832355000000000,        398.5462000000000,        408.1886000000000,        1.991904000000000
     0.001072138000000000,        398.4412000000000,        408.2242000000000,        1.992604000000000
     0.001100000000000000,        398.4064000000000,        408.2360000000000,        1.992836000000000
     0.001190842000000000,        398.2868000000000,        408.2766000000000,        1.993633000000000
     0.001280122000000000,        398.1600000000000,        408.3196000000000,        1.994479000000000
     0.001370431000000000,        398.0224000000000,        408.3662000000000,        1.995398000000000
     0.001459375000000000,        397.8778000000000,        408.4153000000000,        1.996364000000000
     0.001547548000000000,        397.7254000000000,        408.4671000000000,        1.997383000000000
     0.001636509000000000,        397.5626000000000,        408.5224000000000,        1.998473000000000
     0.001725233000000000,        397.3911000000000,        408.5807000000000,        1.999621000000000
     0.001813514000000000,        397.2116000000000,        408.6417000000000,        2.000826000000000
     0.001900495000000000,        397.0259000000000,        408.7049000000000,        2.002072000000000
     0.001989027000000000,        396.8280000000000,        408.7722000000000,        2.003401000000000
     0.002077204000000000,        396.6219000000000,        408.8424000000000,        2.004787000000000
     0.002164972000000000,        396.4079000000000,        408.9154000000000,        2.006229000000000
     0.002200000000000000,        396.3201000000000,        408.9453000000000,        2.006821000000000
     0.002289788000000000,        396.0884000000000,        409.0243000000000,        2.008384000000000
     0.002376832000000000,        395.8549000000000,        409.1040000000000,        2.009961000000000
     0.002464089000000000,        395.6121000000000,        409.1870000000000,        2.011603000000000
     0.002550151000000000,        395.3641000000000,        409.2718000000000,        2.013283000000000
     0.002635726000000000,        395.1090000000000,        409.3590000000000,        2.015014000000000
     0.002723681000000000,        394.8381000000000,        409.4518000000000,        2.016855000000000
     0.002810024000000000,        394.5635000000000,        409.5459000000000,        2.018724000000000
     0.002895571000000000,        394.2829000000000,        409.6421000000000,        2.020635000000000
     0.002981433000000000,        393.9929000000000,        409.7417000000000,        2.022616000000000
     0.003067124000000000,        393.6950000000000,        409.8441000000000,        2.024653000000000
     0.003152313000000000,        393.3905000000000,        409.9488000000000,        2.026739000000000
     0.003237280000000000,        393.0785000000000,        410.0562000000000,        2.028880000000000
     0.003300000000000000,        392.8428000000000,        410.1374000000000,        2.030501000000000
     0.003386893000000000,        392.5088000000000,        410.2526000000000,        2.032800000000000
     0.003471501000000000,        392.1753000000000,        410.3677000000000,        2.035100000000000
     0.003556313000000000,        391.8328000000000,        410.4861000000000,        2.037469000000000
     0.003640077000000000,        391.4863000000000,        410.6060000000000,        2.039868000000000
     0.003723512000000000,        391.1332000000000,        410.7283000000000,        2.042319000000000
     0.003807426000000000,        390.7700000000000,        410.8543000000000,        2.044846000000000
     0.003890128000000000,        390.4041000000000,        410.9813000000000,        2.047396000000000
     0.003973862000000000,        390.0256000000000,        411.1129000000000,        2.050040000000000
     0.004056093000000000,        389.6461000000000,        411.2450000000000,        2.052697000000000
     0.004138933000000000,        389.2559000000000,        411.3809000000000,        2.055435000000000
     0.004221452000000000,        388.8594000000000,        411.5192000000000,        2.058224000000000
     0.004302570000000000,        388.4620000000000,        411.6581000000000,        2.061026000000000
     0.004384160000000000,        388.0546000000000,        411.8006000000000,        2.063905000000000
     0.004400000000000000,        387.9746000000000,        411.8286000000000,        2.064471000000000
     0.004485206000000000,        387.5395000000000,        411.9810000000000,        2.067555000000000
     0.004565638000000000,        387.1211000000000,        412.1278000000000,        2.070528000000000
     0.004645827000000000,        386.6966000000000,        412.2770000000000,        2.073553000000000
     0.004725054000000000,        386.2698000000000,        412.4271000000000,        2.076600000000000
     0.004805336000000000,        385.8301000000000,        412.5820000000000,        2.079749000000000
     0.004885200000000000,        385.3853000000000,        412.7390000000000,        2.082943000000000
     0.004964448000000000,        384.9366000000000,        412.8975000000000,        2.086173000000000
     0.005044204000000000,        384.4779000000000,        413.0598000000000,        2.089485000000000
     0.005123058000000000,        384.0171000000000,        413.2231000000000,        2.092821000000000
     0.005202674000000000,        383.5446000000000,        413.3909000000000,        2.096251000000000
     0.005281363000000000,        383.0704000000000,        413.5594000000000,        2.099702000000000
     0.005359791000000000,        382.5907000000000,        413.7302000000000,        2.103204000000000
     0.005436646000000000,        382.1138000000000,        413.9002000000000,        2.106695000000000
     0.005500000000000000,        381.7156000000000,        414.0424000000000,        2.109619000000000
     0.005580333000000000,        381.2040000000000,        414.2254000000000,        2.113385000000000
     0.005656477000000000,        380.7122000000000,        414.4016000000000,        2.117016000000000
     0.005732526000000000,        380.2144000000000,        414.5802000000000,        2.120703000000000
     0.005809277000000000,        379.7053000000000,        414.7632000000000,        2.124485000000000
     0.005885466000000000,        379.1932000000000,        414.9476000000000,        2.128301000000000
     0.005967866000000000,        378.6318000000000,        415.1500000000000,        2.132497000000000
     0.006043958000000000,        378.1065000000000,        415.3398000000000,        2.136438000000000
     0.006119390000000000,        377.5791000000000,        415.5307000000000,        2.140405000000000
     0.006194131000000000,        377.0502000000000,        415.7225000000000,        2.144399000000000
     0.006268042000000000,        376.5208000000000,        415.9147000000000,        2.148408000000000
     0.006350097000000000,        375.9257000000000,        416.1313000000000,        2.152931000000000
     0.006424376000000000,        375.3803000000000,        416.3301000000000,        2.157090000000000
     0.006508016000000000,        374.7586000000000,        416.5572000000000,        2.161848000000000
     0.006591242000000000,        374.1320000000000,        416.7866000000000,        2.166663000000000
     0.006600000000000000,        374.0656000000000,        416.8110000000000,        2.167174000000000
     0.006682013000000000,        373.4396000000000,        417.0407000000000,        2.172005000000000
     0.006767999000000000,        372.7748000000000,        417.2851000000000,        2.177155000000000
     0.006848004000000000,        372.1487000000000,        417.5158000000000,        2.182025000000000
     0.006922696000000000,        371.5576000000000,        417.7341000000000,        2.186640000000000
     0.007001750000000000,        370.9249000000000,        417.9682000000000,        2.191598000000000
     0.007080998000000000,        370.2835000000000,        418.2061000000000,        2.196646000000000
     0.007151716000000000,        369.7050000000000,        418.4211000000000,        2.201214000000000
     0.007222019000000000,        369.1242000000000,        418.6373000000000,        2.205818000000000
     0.007299485000000000,        368.4776000000000,        418.8785000000000,        2.210963000000000
     0.007374066000000000,        367.8486000000000,        419.1138000000000,        2.215988000000000
     0.007443132000000000,        367.2604000000000,        419.3342000000000,        2.220706000000000
     0.007522105000000000,        366.5812000000000,        419.5893000000000,        2.226176000000000
     0.007603493000000000,        365.8736000000000,        419.8557000000000,        2.231899000000000
     0.007676461000000000,        365.2328000000000,        420.0975000000000,        2.237104000000000
     0.007700000000000000,        365.0248000000000,        420.1761000000000,        2.238798000000000
     0.007785536000000000,        364.2635000000000,        420.4642000000000,        2.245017000000000
     0.007861574000000000,        363.5796000000000,        420.7237000000000,        2.250629000000000
     0.007935457999999999,        362.9088000000000,        420.9788000000000,        2.256158000000000
     0.008005322000000000,        362.2687000000000,        421.2228000000000,        2.261455000000000
     0.008082321000000000,        361.5568000000000,        421.4948000000000,        2.267373000000000
     0.008155529999999999,        360.8735000000000,        421.7565000000000,        2.273077000000000
     0.008227659000000000,        360.1943000000000,        422.0172000000000,        2.278772000000000
     0.008300335000000001,        359.5039000000000,        422.2829000000000,        2.284587000000000
     0.008376214000000000,        358.7766000000000,        422.5635000000000,        2.290741000000000
     0.008453413000000000,        358.0299000000000,        422.8524000000000,        2.297090000000000
     0.008528400000000000,        357.2980000000000,        423.1362000000000,        2.303342000000000
     0.008596962999999999,        356.6232000000000,        423.3986000000000,        2.309133000000000
     0.008675504000000001,        355.8435000000000,        423.7025000000000,        2.315855000000000
     0.008754926999999999,        355.0478000000000,        424.0135000000000,        2.322751000000000
     0.008800000000000001,        354.5930000000000,        424.1917000000000,        2.326708000000000
     0.008876596000000000,        353.8148000000000,        424.4972000000000,        2.333506000000000
     0.008948698999999999,        353.0761000000000,        424.7880000000000,        2.339992000000000
     0.009019877000000001,        352.3410000000000,        425.0781000000000,        2.346477000000000
     0.009092505000000001,        351.5850000000000,        425.3773000000000,        2.353179000000000
     0.009165578000000001,        350.8181000000000,        425.6816000000000,        2.360012000000000
     0.009242327999999999,        350.0061000000000,        426.0047000000000,        2.367284000000000
     0.009314802000000000,        349.2331000000000,        426.3131000000000,        2.374243000000000
     0.009395400000000000,        348.3664000000000,        426.6601000000000,        2.382089000000000
     0.009467100000000001,        347.5891000000000,        426.9721000000000,        2.389164000000000
     0.009542821000000000,        346.7617000000000,        427.3052000000000,        2.396734000000000
     0.009616046000000000,        345.9554000000000,        427.6307000000000,        2.404152000000000
     0.009681066000000000,        345.2343000000000,        427.9227000000000,        2.410820000000000
     0.009755453000000001,        344.4033000000000,        428.2602000000000,        2.418544000000000
     0.009824164000000000,        343.6300000000000,        428.5751000000000,        2.425771000000000
     0.009895960000000001,        342.8163000000000,        428.9074000000000,        2.433416000000000
     0.009900000000000001,        342.7703000000000,        428.9262000000000,        2.433849000000000
     0.009971170000000000,        341.9575000000000,        429.2593000000000,        2.441530000000000
      0.01004765000000000,        341.0775000000000,        429.6210000000000,        2.449894000000000
      0.01011490000000000,        340.2982000000000,        429.9422000000000,        2.457342000000000
      0.01018339000000000,        339.4992000000000,        430.2726000000000,        2.465021000000000
      0.01025402000000000,        338.6695000000000,        430.6167000000000,        2.473038000000000
      0.01032476000000000,        337.8328000000000,        430.9648000000000,        2.481168000000000
      0.01039343000000000,        337.0151000000000,        431.3060000000000,        2.489160000000000
      0.01046170000000000,        336.1968000000000,        431.6485000000000,        2.497202000000000
      0.01052802000000000,        335.3968000000000,        431.9844000000000,        2.505108000000000
      0.01061054000000000,        334.3942000000000,        432.4067000000000,        2.515077000000000
      0.01067283000000000,        333.6322000000000,        432.7287000000000,        2.522700000000000
      0.01073233000000000,        332.9002000000000,        433.0390000000000,        2.530061000000000
      0.01079064000000000,        332.1789000000000,        433.3455000000000,        2.537352000000000
      0.01085831000000000,        331.3369000000000,        433.7044000000000,        2.545907000000000
      0.01100000000000000,        329.5568000000000,        434.4668000000000,        2.564161000000000
      0.01118963000000000,        327.1383000000000,        435.5109000000000,        2.589324000000000
      0.01138201000000000,        324.6425000000000,        436.5986000000000,        2.615746000000000
      0.01169018000000000,        320.5559000000000,        438.4025000000000,        2.660038000000000
      0.01197013000000000,        316.7489000000000,        440.1092000000000,        2.702490000000000
      0.01210000000000000,        314.9523000000000,        440.9235000000000,        2.722934000000000
      0.01237922000000000,        311.0238000000000,        442.7245000000000,        2.768588000000000
      0.01271432000000000,        306.1908000000000,        444.9799000000000,        2.826614000000000
      0.01297914000000000,        302.2801000000000,        446.8379000000000,        2.875142000000000
      0.01320000000000000,        298.9799000000000,        448.4293000000000,        2.917229000000000
      0.01421109000000000,        283.8706000000000,        456.0071000000000,        3.124427000000000
      0.01430000000000000,        282.5420000000000,        456.6976000000000,        3.143874000000000
      0.01540000000000000,        266.1040000000000,        465.5905000000000,        3.403089000000000
      0.01650000000000000,        249.6661000000000,        475.1968000000000,        3.701988000000000
      0.01760000000000000,        233.2282000000000,        485.6253000000000,        4.049875000000000
      0.01828549000000000,        222.9845000000000,        492.5979000000000,        4.296743000000000
      0.01870000000000000,        216.7902000000000,        497.0103000000000,        4.459100000000000
      0.01960110000000000,        203.3246000000000,        507.1660000000000,        4.851563000000000
      0.01980000000000000,        200.3523000000000,        509.5202000000000,        4.946392000000000
      0.02033511000000000,        192.3558000000000,        516.0749000000000,        5.218297000000000
      0.02090000000000000,        183.9144000000000,        523.3704000000000,        5.534969000000000
      0.02186187000000000,        169.5406000000000,        536.7972000000000,        6.158257000000000
      0.02200000000000000,        167.4764000000000,        538.8405000000000,        6.257889000000000
      0.02310000000000000,        151.0385000000000,        556.3033000000000,        7.163806000000000
      0.02405778000000000,        136.7258000000000,        573.5266000000000,        8.158742000000000
      0.02420000000000000,        134.6006000000000,        576.2720000000000,        8.327233000000000
      0.02456047000000000,        129.2138000000000,        583.4754000000000,        8.782817000000000
      0.02489306000000000,        124.2438000000000,        590.4549000000000,        9.243415000000001
      0.02530000000000000,        118.1626000000000,        599.4732000000000,        9.867566999999999
      0.02593002000000000,        108.7480000000000,        614.6133000000000,        10.99262000000000
      0.02631093000000000,        103.0557000000000,        624.5630000000000,        11.78758000000000
      0.02640000000000000,        101.7247000000000,        626.9861000000000,        11.98814000000000
      0.02673093000000000,        96.77949000000000,        636.3379000000000,        12.78867000000000
      0.02724471000000000,        89.10172000000000,        652.0676999999999,        14.23400000000000
      0.02750000000000000,        85.28677000000000,        660.5065000000000,        15.06316000000000
      0.02772831000000000,        81.87641000000001,        668.4455000000000,        15.87915000000000
      0.02774882000000000,        81.57266000000000,        669.1719000000001,        15.95560000000000
      0.02777113000000000,        81.24390000000000,        669.9619000000000,        16.03908000000000
      0.02779320000000000,        80.92040000000000,        670.7429000000000,        16.12197000000000
      0.02781389000000000,        80.61870000000000,        671.4748000000000,        16.19997000000000
      0.02783853000000000,        80.26130000000001,        672.3460000000000,        16.29322000000000
      0.02786256000000000,        79.91481000000000,        673.1951000000000,        16.38454000000000
      0.02788668000000000,        79.56892999999999,        674.0472000000000,        16.47659000000000
      0.02791117000000000,        79.21991000000000,        674.9115000000000,        16.57040000000000
      0.02793464000000000,        78.88742000000001,        675.7392000000000,        16.66066000000000
      0.02795886000000000,        78.54619000000000,        676.5930000000000,        16.75419000000000
      0.02797984000000000,        78.25228000000000,        677.3321000000000,        16.83549000000000
      0.02800423000000000,        77.91269000000000,        678.1901000000000,        16.93029000000000
