NR-Time     NR-Pres Reac-Time Reac-Pres
-10.0000    2.3757  -10.000 2.4037
-9.99000    2.3786  -9.9900 2.4058
-9.98000    2.3793  -9.9800 2.4101
-9.97000    2.3828  -9.9700 2.4119
-9.96000    2.3877  -9.9600 2.4139
-9.95000    2.3917  -9.9500 2.4163
-9.94000    2.3941  -9.9400 2.4209
-9.93000    2.3949  -9.9300 2.4255
-9.92000    2.3975  -9.9200 2.4276
-9.91000    2.4042  -9.9100 2.4300
-9.90000    2.4106  -9.9000 2.4343
-9.89000    2.4117  -9.8900 2.4372
-9.88000    2.4137  -9.8800 2.4398
-9.87000    2.4161  -9.8700 2.4445
-9.86000    2.4198  -9.8600 2.4491
-9.85000    2.4213  -9.8500 2.4528
-9.84000    2.4237  -9.8400 2.4554
-9.83000    2.4276  -9.8300 2.4587
-9.82000    2.4320  -9.8200 2.4655
-9.81000    2.4361  -9.8100 2.4700
-9.80000    2.4370  -9.8000 2.4714
-9.79000    2.4384  -9.7900 2.4740
-9.78000    2.4428  -9.7800 2.4766
-9.77000    2.4472  -9.7700 2.4819
-9.76000    2.4491  -9.7600 2.4857
-9.75000    2.4532  -9.7500 2.4883
-9.74000    2.4572  -9.7400 2.4893
-9.73000    2.4604  -9.7300 2.4915
-9.72000    2.4640  -9.7200 2.4972
-9.71000    2.4668  -9.7100 2.5021
-9.70000    2.4689  -9.7000 2.5022
-9.69000    2.4741  -9.6900 2.5041
-9.68000    2.4776  -9.6800 2.5092
-9.67000    2.4814  -9.6700 2.5137
-9.66000    2.4848  -9.6600 2.5166
-9.65000    2.4894  -9.6500 2.5173
-9.64000    2.4929  -9.6400 2.5208
-9.63000    2.4967  -9.6300 2.5237
-9.62000    2.5008  -9.6200 2.5257
-9.61000    2.5028  -9.6100 2.5292
-9.60000    2.5069  -9.6000 2.5334
-9.59000    2.5124  -9.5900 2.5370
-9.58000    2.5170  -9.5800 2.5402
-9.57000    2.5199  -9.5700 2.5422
-9.56000    2.5217  -9.5600 2.5454
-9.55000    2.5255  -9.5500 2.5489
-9.54000    2.5322  -9.5400 2.5540
-9.53000    2.5376  -9.5300 2.5573
-9.52000    2.5383  -9.5200 2.5582
-9.51000    2.5394  -9.5100 2.5616
-9.50000    2.5420  -9.5000 2.5671
-9.49000    2.5461  -9.4900 2.5723
-9.48000    2.5510  -9.4800 2.5739
-9.47000    2.5541  -9.4700 2.5752
-9.46000    2.5562  -9.4600 2.5797
-9.45000    2.5586  -9.4500 2.5858
-9.44000    2.5629  -9.4400 2.5904
-9.43000    2.5675  -9.4300 2.5945
-9.42000    2.5693  -9.4200 2.5970
-9.41000    2.5705  -9.4100 2.6013
-9.40000    2.5748  -9.4000 2.6057
-9.39000    2.5798  -9.3900 2.6089
-9.38000    2.5841  -9.3800 2.6129
-9.37000    2.5866  -9.3700 2.6156
-9.36000    2.5884  -9.3600 2.6194
-9.35000    2.5933  -9.3500 2.6248
-9.34000    2.5969  -9.3400 2.6270
-9.33000    2.5985  -9.3300 2.6304
-9.32000    2.6043  -9.3200 2.6354
-9.31000    2.6072  -9.3100 2.6386
-9.30000    2.6114  -9.3000 2.6421
-9.29000    2.6159  -9.2900 2.6440
-9.28000    2.6191  -9.2800 2.6464
-9.27000    2.6236  -9.2700 2.6507
-9.26000    2.6276  -9.2600 2.6544
-9.25000    2.6311  -9.2500 2.6563
-9.24000    2.6346  -9.2400 2.6586
-9.23000    2.6369  -9.2300 2.6618
-9.22000    2.6410  -9.2200 2.6652
-9.21000    2.6474  -9.2100 2.6690
-9.20000    2.6508  -9.2000 2.6728
-9.19000    2.6519  -9.1900 2.6771
-9.18000    2.6534  -9.1800 2.6809
-9.17000    2.6572  -9.1700 2.6856
-9.16000    2.6624  -9.1600 2.6887
-9.15000    2.6625  -9.1500 2.6931
-9.14000    2.6647  -9.1400 2.6980
-9.13000    2.6706  -9.1300 2.7018
-9.12000    2.6746  -9.1200 2.7056
-9.11000    2.6793  -9.1100 2.7081
-9.10000    2.6793  -9.1000 2.7131
-9.09000    2.6822  -9.0900 2.7177
-9.08000    2.6870  -9.0800 2.7215
-9.07000    2.6905  -9.0700 2.7261
-9.06000    2.6955  -9.0600 2.7281
-9.05000    2.7005  -9.0500 2.7329
-9.04000    2.7050  -9.0400 2.7386
-9.03000    2.7095  -9.0300 2.7412
-9.02000    2.7131  -9.0200 2.7464
-9.01000    2.7170  -9.0100 2.7496
-9.00000    2.7198  -9.0000 2.7525
-8.99000    2.7243  -8.9900 2.7557
-8.98000    2.7294  -8.9800 2.7590
-8.97000    2.7333  -8.9700 2.7639
-8.96000    2.7393  -8.9600 2.7686
-8.95000    2.7451  -8.9500 2.7720
-8.94000    2.7465  -8.9400 2.7744
-8.93000    2.7486  -8.9300 2.7761
-8.92000    2.7526  -8.9200 2.7790
-8.91000    2.7578  -8.9100 2.7859
-8.90000    2.7668  -8.9000 2.7882
-8.89000    2.7684  -8.8900 2.7909
-8.88000    2.7707  -8.8800 2.7958
-8.87000    2.7773  -8.8700 2.7989
-8.86000    2.7817  -8.8600 2.8036
-8.85000    2.7848  -8.8500 2.8069
-8.84000    2.7860  -8.8400 2.8091
-8.83000    2.7881  -8.8300 2.8141
-8.82000    2.7959  -8.8200 2.8204
-8.81000    2.8003  -8.8100 2.8246
-8.80000    2.8043  -8.8000 2.8275
-8.79000    2.8067  -8.7900 2.8321
-8.78000    2.8080  -8.7800 2.8387
-8.77000    2.8145  -8.7700 2.8423
-8.76000    2.8176  -8.7600 2.8440
-8.75000    2.8200  -8.7500 2.8457
-8.74000    2.8266  -8.7400 2.8513
-8.73000    2.8298  -8.7300 2.8596
-8.72000    2.8360  -8.7200 2.8629
-8.71000    2.8405  -8.7100 2.8652
-8.70000    2.8405  -8.7000 2.8697
-8.69000    2.8473  -8.6900 2.8736
-8.68000    2.8530  -8.6800 2.8784
-8.67000    2.8569  -8.6700 2.8834
-8.66000    2.8601  -8.6600 2.8880
-8.65000    2.8611  -8.6500 2.8927
-8.64000    2.8679  -8.6400 2.8962
-8.63000    2.8760  -8.6300 2.9009
-8.62000    2.8786  -8.6200 2.9043
-8.61000    2.8806  -8.6100 2.9084
-8.60000    2.8823  -8.6000 2.9147
-8.59000    2.8885  -8.5900 2.9186
-8.58000    2.8974  -8.5800 2.9209
-8.57000    2.9018  -8.5700 2.9253
-8.56000    2.9052  -8.5600 2.9327
-8.55000    2.9079  -8.5500 2.9397
-8.54000    2.9113  -8.5400 2.9435
-8.53000    2.9183  -8.5300 2.9467
-8.52000    2.9233  -8.5200 2.9514
-8.51000    2.9273  -8.5100 2.9569
-8.50000    2.9323  -8.5000 2.9633
-8.49000    2.9363  -8.4900 2.9678
-8.48000    2.9409  -8.4800 2.9698
-8.47000    2.9445  -8.4700 2.9723
-8.46000    2.9493  -8.4600 2.9783
-8.45000    2.9566  -8.4500 2.9852
-8.44000    2.9605  -8.4400 2.9902
-8.43000    2.9625  -8.4300 2.9926
-8.42000    2.9667  -8.4200 2.9957
-8.41000    2.9738  -8.4100 3.0013
-8.40000    2.9819  -8.4000 3.0061
-8.39000    2.9850  -8.3900 3.0105
-8.38000    2.9871  -8.3800 3.0134
-8.37000    2.9929  -8.3700 3.0175
-8.36000    3.0001  -8.3600 3.0221
-8.35000    3.0066  -8.3500 3.0256
-8.34000    3.0109  -8.3400 3.0302
-8.33000    3.0150  -8.3300 3.0337
-8.32000    3.0198  -8.3200 3.0393
-8.31000    3.0249  -8.3100 3.0427
-8.30000    3.0300  -8.3000 3.0462
-8.29000    3.0336  -8.2900 3.0523
-8.28000    3.0379  -8.2800 3.0586
-8.27000    3.0443  -8.2700 3.0647
-8.26000    3.0497  -8.2600 3.0679
-8.25000    3.0556  -8.2500 3.0699
-8.24000    3.0603  -8.2400 3.0758
-8.23000    3.0648  -8.2300 3.0816
-8.22000    3.0709  -8.2200 3.0851
-8.21000    3.0756  -8.2100 3.0888
-8.20000    3.0800  -8.2000 3.0935
-8.19000    3.0858  -8.1900 3.0993
-8.18000    3.0915  -8.1800 3.1057
-8.17000    3.0948  -8.1700 3.1106
-8.16000    3.0980  -8.1600 3.1146
-8.15000    3.1017  -8.1500 3.1181
-8.14000    3.1070  -8.1400 3.1239
-8.13000    3.1131  -8.1300 3.1306
-8.12000    3.1182  -8.1200 3.1358
-8.11000    3.1227  -8.1100 3.1413
-8.10000    3.1269  -8.1000 3.1454
-8.09000    3.1327  -8.0900 3.1497
-8.08000    3.1394  -8.0800 3.1550
-8.07000    3.1430  -8.0700 3.1603
-8.06000    3.1479  -8.0600 3.1657
-8.05000    3.1517  -8.0500 3.1710
-8.04000    3.1563  -8.0400 3.1757
-8.03000    3.1641  -8.0300 3.1817
-8.02000    3.1690  -8.0200 3.1896
-8.01000    3.1717  -8.0100 3.1950
-8.00000    3.1762  -8.0000 3.1976
-7.99000    3.1815  -7.9900 3.2018
-7.98000    3.1878  -7.9800 3.2092
-7.97000    3.1935  -7.9700 3.2157
-7.96000    3.1993  -7.9600 3.2211
-7.95000    3.2056  -7.9500 3.2253
-7.94000    3.2109  -7.9400 3.2290
-7.93000    3.2163  -7.9300 3.2354
-7.92000    3.2204  -7.9200 3.2411
-7.91000    3.2235  -7.9100 3.2453
-7.90000    3.2297  -7.9000 3.2499
-7.89000    3.2349  -7.8900 3.2551
-7.88000    3.2395  -7.8800 3.2609
-7.87000    3.2460  -7.8700 3.2668
-7.86000    3.2497  -7.8600 3.2723
-7.85000    3.2549  -7.8500 3.2778
-7.84000    3.2618  -7.8400 3.2824
-7.83000    3.2663  -7.8300 3.2862
-7.82000    3.2717  -7.8200 3.2917
-7.81000    3.2787  -7.8100 3.2966
-7.80000    3.2842  -7.8000 3.3032
-7.79000    3.2888  -7.7900 3.3085
-7.78000    3.2943  -7.7800 3.3108
-7.77000    3.2993  -7.7700 3.3160
-7.76000    3.3025  -7.7600 3.3219
-7.75000    3.3089  -7.7500 3.3296
-7.74000    3.3153  -7.7400 3.3364
-7.73000    3.3202  -7.7300 3.3393
-7.72000    3.3261  -7.7200 3.3445
-7.71000    3.3327  -7.7100 3.3514
-7.70000    3.3381  -7.7000 3.3575
-7.69000    3.3448  -7.6900 3.3634
-7.68000    3.3506  -7.6800 3.3683
-7.67000    3.3545  -7.6700 3.3740
-7.66000    3.3623  -7.6600 3.3805
-7.65000    3.3669  -7.6500 3.3851
-7.64000    3.3710  -7.6400 3.3903
-7.63000    3.3779  -7.6300 3.3982
-7.62000    3.3847  -7.6200 3.4033
-7.61000    3.3913  -7.6100 3.4094
-7.60000    3.3956  -7.6000 3.4150
-7.59000    3.3997  -7.5900 3.4211
-7.58000    3.4060  -7.5800 3.4287
-7.57000    3.4133  -7.5700 3.4333
-7.56000    3.4215  -7.5600 3.4384
-7.55000    3.4266  -7.5500 3.4443
-7.54000    3.4304  -7.5400 3.4493
-7.53000    3.4366  -7.5300 3.4559
-7.52000    3.4427  -7.5200 3.4614
-7.51000    3.4478  -7.5100 3.4666
-7.50000    3.4534  -7.5000 3.4728
-7.49000    3.4581  -7.4900 3.4776
-7.48000    3.4633  -7.4800 3.4834
-7.47000    3.4706  -7.4700 3.4890
-7.46000    3.4757  -7.4600 3.4925
-7.45000    3.4809  -7.4500 3.4989
-7.44000    3.4862  -7.4400 3.5059
-7.43000    3.4931  -7.4300 3.5122
-7.42000    3.4987  -7.4200 3.5185
-7.41000    3.5024  -7.4100 3.5227
-7.40000    3.5093  -7.4000 3.5301
-7.39000    3.5173  -7.3900 3.5375
-7.38000    3.5237  -7.3800 3.5439
-7.37000    3.5289  -7.3700 3.5507
-7.36000    3.5335  -7.3600 3.5551
-7.35000    3.5402  -7.3500 3.5618
-7.34000    3.5483  -7.3400 3.5703
-7.33000    3.5529  -7.3300 3.5766
-7.32000    3.5584  -7.3200 3.5818
-7.31000    3.5675  -7.3100 3.5867
-7.30000    3.5759  -7.3000 3.5944
-7.29000    3.5816  -7.2900 3.6041
-7.28000    3.5860  -7.2800 3.6091
-7.27000    3.5915  -7.2700 3.6158
-7.26000    3.5991  -7.2600 3.6225
-7.25000    3.6068  -7.2500 3.6279
-7.24000    3.6161  -7.2400 3.6344
-7.23000    3.6217  -7.2300 3.6404
-7.22000    3.6255  -7.2200 3.6474
-7.21000    3.6322  -7.2100 3.6530
-7.20000    3.6406  -7.2000 3.6587
-7.19000    3.6489  -7.1900 3.6651
-7.18000    3.6538  -7.1800 3.6691
-7.17000    3.6586  -7.1700 3.6767
-7.16000    3.6652  -7.1600 3.6887
-7.15000    3.6730  -7.1500 3.6964
-7.14000    3.6794  -7.1400 3.7010
-7.13000    3.6867  -7.1300 3.7063
-7.12000    3.6950  -7.1200 3.7144
-7.11000    3.7004  -7.1100 3.7246
-7.10000    3.7055  -7.1000 3.7301
-7.09000    3.7120  -7.0900 3.7336
-7.08000    3.7212  -7.0800 3.7394
-7.07000    3.7308  -7.0700 3.7443
-7.06000    3.7358  -7.0600 3.7541
-7.05000    3.7427  -7.0500 3.7650
-7.04000    3.7484  -7.0400 3.7722
-7.03000    3.7543  -7.0300 3.7771
-7.02000    3.7639  -7.0200 3.7808
-7.01000    3.7716  -7.0100 3.7917
-7.00000    3.7780  -7.0000 3.8018
-6.99000    3.7851  -6.9900 3.8081
-6.98000    3.7929  -6.9800 3.8152
-6.97000    3.8012  -6.9700 3.8186
-6.96000    3.8085  -6.9600 3.8223
-6.95000    3.8135  -6.9500 3.8300
-6.94000    3.8219  -6.9400 3.8365
-6.93000    3.8289  -6.9300 3.8442
-6.92000    3.8349  -6.9200 3.8505
-6.91000    3.8419  -6.9100 3.8548
-6.90000    3.8488  -6.9000 3.8639
-6.89000    3.8576  -6.8900 3.8728
-6.88000    3.8640  -6.8800 3.8825
-6.87000    3.8700  -6.8700 3.8903
-6.86000    3.8774  -6.8600 3.8950
-6.85000    3.8854  -6.8500 3.9005
-6.84000    3.8927  -6.8400 3.9082
-6.83000    3.8993  -6.8300 3.9163
-6.82000    3.9071  -6.8200 3.9260
-6.81000    3.9159  -6.8100 3.9318
-6.80000    3.9222  -6.8000 3.9355
-6.79000    3.9273  -6.7900 3.9428
-6.78000    3.9336  -6.7800 3.9500
-6.77000    3.9409  -6.7700 3.9597
-6.76000    3.9498  -6.7600 3.9697
-6.75000    3.9594  -6.7500 3.9748
-6.74000    3.9653  -6.7400 3.9819
-6.73000    3.9731  -6.7300 3.9900
-6.72000    3.9820  -6.7200 3.9977
-6.71000    3.9914  -6.7100 4.0064
-6.70000    4.0018  -6.7000 4.0121
-6.69000    4.0085  -6.6900 4.0199
-6.68000    4.0168  -6.6800 4.0269
-6.67000    4.0261  -6.6700 4.0347
-6.66000    4.0372  -6.6600 4.0418
-6.65000    4.0453  -6.6500 4.0475
-6.64000    4.0517  -6.6400 4.0551
-6.63000    4.0598  -6.6300 4.0643
-6.62000    4.0674  -6.6200 4.0730
-6.61000    4.0752  -6.6100 4.0809
-6.60000    4.0847  -6.6000 4.0893
-6.59000    4.0932  -6.5900 4.0974
-6.58000    4.1024  -6.5800 4.1074
-6.57000    4.1120  -6.5700 4.1166
-6.56000    4.1193  -6.5600 4.1235
-6.55000    4.1262  -6.5500 4.1303
-6.54000    4.1362  -6.5400 4.1407
-6.53000    4.1445  -6.5300 4.1493
-6.52000    4.1506  -6.5200 4.1581
-6.51000    4.1582  -6.5100 4.1677
-6.50000    4.1654  -6.5000 4.1758
-6.49000    4.1745  -6.4900 4.1847
-6.48000    4.1803  -6.4800 4.1929
-6.47000    4.1874  -6.4700 4.2013
-6.46000    4.1950  -6.4600 4.2133
-6.45000    4.2023  -6.4500 4.2233
-6.44000    4.2115  -6.4400 4.2307
-6.43000    4.2199  -6.4300 4.2382
-6.42000    4.2289  -6.4200 4.2451
-6.41000    4.2386  -6.4100 4.2538
-6.40000    4.2450  -6.4000 4.2606
-6.39000    4.2531  -6.3900 4.2692
-6.38000    4.2626  -6.3800 4.2791
-6.37000    4.2702  -6.3700 4.2860
-6.36000    4.2791  -6.3600 4.2931
-6.35000    4.2884  -6.3500 4.3018
-6.34000    4.2963  -6.3400 4.3095
-6.33000    4.3061  -6.3300 4.3179
-6.32000    4.3164  -6.3200 4.3261
-6.31000    4.3235  -6.3100 4.3340
-6.30000    4.3337  -6.3000 4.3433
-6.29000    4.3430  -6.2900 4.3507
-6.28000    4.3529  -6.2800 4.3601
-6.27000    4.3618  -6.2700 4.3696
-6.26000    4.3703  -6.2600 4.3760
-6.25000    4.3795  -6.2500 4.3842
-6.24000    4.3885  -6.2400 4.3934
-6.23000    4.3976  -6.2300 4.4022
-6.22000    4.4069  -6.2200 4.4114
-6.21000    4.4165  -6.2100 4.4189
-6.20000    4.4258  -6.2000 4.4290
-6.19000    4.4344  -6.1900 4.4384
-6.18000    4.4431  -6.1800 4.4450
-6.17000    4.4530  -6.1700 4.4537
-6.16000    4.4651  -6.1600 4.4618
-6.15000    4.4727  -6.1500 4.4730
-6.14000    4.4808  -6.1400 4.4851
-6.13000    4.4901  -6.1300 4.4940
-6.12000    4.4985  -6.1200 4.5031
-6.11000    4.5104  -6.1100 4.5123
-6.10000    4.5180  -6.1000 4.5213
-6.09000    4.5256  -6.0900 4.5329
-6.08000    4.5369  -6.0800 4.5417
-6.07000    4.5479  -6.0700 4.5512
-6.06000    4.5581  -6.0600 4.5619
-6.05000    4.5671  -6.0500 4.5710
-6.04000    4.5746  -6.0400 4.5809
-6.03000    4.5862  -6.0300 4.5905
-6.02000    4.5963  -6.0200 4.5989
-6.01000    4.6050  -6.0100 4.6099
-6.00000    4.6160  -6.0000 4.6227
-5.99000    4.6253  -5.9900 4.6324
-5.98000    4.6349  -5.9800 4.6412
-5.97000    4.6454  -5.9700 4.6504
-5.96000    4.6541  -5.9600 4.6621
-5.95000    4.6654  -5.9500 4.6735
-5.94000    4.6752  -5.9400 4.6815
-5.93000    4.6856  -5.9300 4.6908
-5.92000    4.6981  -5.9200 4.6993
-5.91000    4.7080  -5.9100 4.7094
-5.90000    4.7182  -5.9000 4.7224
-5.89000    4.7306  -5.8900 4.7321
-5.88000    4.7432  -5.8800 4.7418
-5.87000    4.7521  -5.8700 4.7511
-5.86000    4.7600  -5.8600 4.7604
-5.85000    4.7716  -5.8500 4.7717
-5.84000    4.7873  -5.8400 4.7830
-5.83000    4.7985  -5.8300 4.7930
-5.82000    4.8081  -5.8200 4.8043
-5.81000    4.8183  -5.8100 4.8150
-5.80000    4.8299  -5.8000 4.8226
-5.79000    4.8441  -5.7900 4.8333
-5.78000    4.8546  -5.7800 4.8463
-5.77000    4.8642  -5.7700 4.8576
-5.76000    4.8748  -5.7600 4.8684
-5.75000    4.8851  -5.7500 4.8765
-5.74000    4.8975  -5.7400 4.8872
-5.73000    4.9070  -5.7300 4.9000
-5.72000    4.9170  -5.7200 4.9113
-5.71000    4.9300  -5.7100 4.9223
-5.70000    4.9413  -5.7000 4.9288
-5.69000    4.9514  -5.6900 4.9369
-5.68000    4.9614  -5.6800 4.9503
-5.67000    4.9724  -5.6700 4.9616
-5.66000    4.9865  -5.6600 4.9722
-5.65000    4.9991  -5.6500 4.9827
-5.64000    5.0084  -5.6400 4.9915
-5.63000    5.0177  -5.6300 5.0044
-5.62000    5.0283  -5.6200 5.0178
-5.61000    5.0412  -5.6100 5.0297
-5.60000    5.0524  -5.6000 5.0411
-5.59000    5.0635  -5.5900 5.0512
-5.58000    5.0748  -5.5800 5.0626
-5.57000    5.0864  -5.5700 5.0764
-5.56000    5.0994  -5.5600 5.0878
-5.55000    5.1108  -5.5500 5.0987
-5.54000    5.1236  -5.5400 5.1090
-5.53000    5.1365  -5.5300 5.1186
-5.52000    5.1476  -5.5200 5.1328
-5.51000    5.1604  -5.5100 5.1443
-5.50000    5.1728  -5.5000 5.1563
-5.49000    5.1854  -5.4900 5.1698
-5.48000    5.1979  -5.4800 5.1798
-5.47000    5.2100  -5.4700 5.1927
-5.46000    5.2225  -5.4600 5.2053
-5.45000    5.2350  -5.4500 5.2162
-5.44000    5.2466  -5.4400 5.2290
-5.43000    5.2602  -5.4300 5.2410
-5.42000    5.2739  -5.4200 5.2520
-5.41000    5.2851  -5.4100 5.2639
-5.40000    5.2991  -5.4000 5.2752
-5.39000    5.3107  -5.3900 5.2882
-5.38000    5.3234  -5.3800 5.3001
-5.37000    5.3380  -5.3700 5.3117
-5.36000    5.3498  -5.3600 5.3230
-5.35000    5.3644  -5.3500 5.3336
-5.34000    5.3766  -5.3400 5.3471
-5.33000    5.3888  -5.3300 5.3608
-5.32000    5.4038  -5.3200 5.3719
-5.31000    5.4149  -5.3100 5.3825
-5.30000    5.4276  -5.3000 5.3956
-5.29000    5.4418  -5.2900 5.4101
-5.28000    5.4546  -5.2800 5.4235
-5.27000    5.4682  -5.2700 5.4347
-5.26000    5.4807  -5.2600 5.4472
-5.25000    5.4943  -5.2500 5.4623
-5.24000    5.5086  -5.2400 5.4762
-5.23000    5.5220  -5.2300 5.4882
-5.22000    5.5361  -5.2200 5.4994
-5.21000    5.5495  -5.2100 5.5129
-5.20000    5.5628  -5.2000 5.5291
-5.19000    5.5783  -5.1900 5.5421
-5.18000    5.5931  -5.1800 5.5541
-5.17000    5.6060  -5.1700 5.5671
-5.16000    5.6203  -5.1600 5.5801
-5.15000    5.6347  -5.1500 5.5966
-5.14000    5.6478  -5.1400 5.6109
-5.13000    5.6629  -5.1300 5.6234
-5.12000    5.6771  -5.1200 5.6364
-5.11000    5.6911  -5.1100 5.6522
-5.10000    5.7058  -5.1000 5.6672
-5.09000    5.7201  -5.0900 5.6806
-5.08000    5.7337  -5.0800 5.6934
-5.07000    5.7482  -5.0700 5.7067
-5.06000    5.7630  -5.0600 5.7212
-5.05000    5.7773  -5.0500 5.7346
-5.04000    5.7921  -5.0400 5.7491
-5.03000    5.8066  -5.0300 5.7633
-5.02000    5.8202  -5.0200 5.7774
-5.01000    5.8358  -5.0100 5.7905
-5.00000    5.8509  -5.0000 5.8041
-4.99000    5.8643  -4.9900 5.8201
-4.98000    5.8794  -4.9800 5.8366
-4.97000    5.8951  -4.9700 5.8503
-4.96000    5.9096  -4.9600 5.8665
-4.95000    5.9246  -4.9500 5.8817
-4.94000    5.9409  -4.9400 5.8958
-4.93000    5.9569  -4.9300 5.9115
-4.92000    5.9723  -4.9200 5.9269
-4.91000    5.9877  -4.9100 5.9425
-4.90000    6.0027  -4.9000 5.9580
-4.89000    6.0172  -4.8900 5.9721
-4.88000    6.0340  -4.8800 5.9882
-4.87000    6.0530  -4.8700 6.0061
-4.86000    6.0698  -4.8600 6.0217
-4.85000    6.0849  -4.8500 6.0375
-4.84000    6.1002  -4.8400 6.0528
-4.83000    6.1168  -4.8300 6.0681
-4.82000    6.1371  -4.8200 6.0853
-4.81000    6.1559  -4.8100 6.1015
-4.80000    6.1699  -4.8000 6.1181
-4.79000    6.1870  -4.7900 6.1326
-4.78000    6.2052  -4.7800 6.1466
-4.77000    6.2223  -4.7700 6.1628
-4.76000    6.2406  -4.7600 6.1794
-4.75000    6.2548  -4.7500 6.1981
-4.74000    6.2723  -4.7400 6.2142
-4.73000    6.2897  -4.7300 6.2289
-4.72000    6.3063  -4.7200 6.2460
-4.71000    6.3253  -4.7100 6.2628
-4.70000    6.3425  -4.7000 6.2795
-4.69000    6.3604  -4.6900 6.2968
-4.68000    6.3774  -4.6800 6.3140
-4.67000    6.3935  -4.6700 6.3294
-4.66000    6.4116  -4.6600 6.3453
-4.65000    6.4302  -4.6500 6.3632
-4.64000    6.4470  -4.6400 6.3807
-4.63000    6.4631  -4.6300 6.3986
-4.62000    6.4800  -4.6200 6.4146
-4.61000    6.4969  -4.6100 6.4312
-4.60000    6.5152  -4.6000 6.4500
-4.59000    6.5320  -4.5900 6.4684
-4.58000    6.5485  -4.5800 6.4875
-4.57000    6.5665  -4.5700 6.5049
-4.56000    6.5844  -4.5600 6.5214
-4.55000    6.6042  -4.5500 6.5377
-4.54000    6.6217  -4.5400 6.5543
-4.53000    6.6391  -4.5300 6.5734
-4.52000    6.6576  -4.5200 6.5911
-4.51000    6.6748  -4.5100 6.6081
-4.50000    6.6945  -4.5000 6.6258
-4.49000    6.7133  -4.4900 6.6427
-4.48000    6.7308  -4.4800 6.6593
-4.47000    6.7488  -4.4700 6.6786
-4.46000    6.7673  -4.4600 6.6973
-4.45000    6.7856  -4.4500 6.7153
-4.44000    6.8065  -4.4400 6.7324
-4.43000    6.8277  -4.4300 6.7500
-4.42000    6.8445  -4.4200 6.7704
-4.41000    6.8621  -4.4100 6.7910
-4.40000    6.8842  -4.4000 6.8083
-4.39000    6.9046  -4.3900 6.8250
-4.38000    6.9233  -4.3800 6.8409
-4.37000    6.9422  -4.3700 6.8606
-4.36000    6.9605  -4.3600 6.8824
-4.35000    6.9822  -4.3500 6.8993
-4.34000    7.0043  -4.3400 6.9190
-4.33000    7.0221  -4.3300 6.9401
-4.32000    7.0412  -4.3200 6.9581
-4.31000    7.0615  -4.3100 6.9773
